20 58.72
20.299999 58.81
20.6 58.91
20.9 59.00
21.200001 59.09
21.4 59.14
21.799999 59.26
22 59.31
22.4 59.43
22.700001 59.51
23 59.60
23.299999 59.69
23.6 59.77
24 59.88
24.299999 59.96
24.700001 60.06
25 60.14
25.4 60.24
25.799999 60.34
26.200001 60.43
26.5 60.49
26.9 60.57
27.200001 60.62
27.6 60.69
28 60.76
28.5 60.84
29 60.92
29.5 61.00
30 61.08
30.4 61.14
30.700001 61.19
31.1 61.25
31.5 61.31
32 61.39
32.5 61.47
33 61.54
33.5 61.60
34 61.66
34.5 61.73
35 61.79
35.5 61.85
36 61.90
36.5 61.96
37 62.01
37.5 62.06
38.200001 62.12
38.700001 62.17
39.5 62.24
40 62.28
40.599998 62.33
41.200001 62.37
41.799999 62.41
42.5 62.46
43.099998 62.50
43.700001 62.54
44.400002 62.58
45 62.62
45.5 62.65
46.200001 62.68
46.799999 62.71
47.5 62.74
48.200001 62.77
48.700001 62.79
49.400002 62.82
50 62.85
50.799999 62.88
51.5 62.90
52.200001 62.92
53 62.95
53.799999 62.98
54.5 62.99
55.200001 63.01
56 63.02
57 63.04
58 63.06
59 63.07
60 63.08
60.799999 63.08
61.5 63.09
62.200001 63.10
63 63.10
64 63.10
65 63.11
66 63.11
67 63.12
68 63.13
69 63.14
70 63.14
71 63.14
72 63.15
73 63.15
74 63.13
75 63.13
76.199997 63.12
77.5 63.11
78.800003 63.09
80 63.08
81.199997 63.06
82.5 63.04
83.800003 63.02
85 63.00
86.199997 62.97
87.5 62.95
88.5 62.93
90 62.91
91.199997 62.89
92.5 62.87
93.800003 62.84
95 62.82
96.199997 62.80
97.5 62.77
98.800003 62.76
100 62.73
101.5 62.68
103 62.66
104.400002 62.62
106 62.58
107.5 62.54
109 62.50
110.599998 62.46
112 62.43
113.800003 62.38
115 62.35
117.199997 62.30
118 62.27
120.599998 62.22
122 62.16
124.099998 62.10
125 62.07
126.5 62.03
128 62.00
131.5 61.90
132 61.89
134 61.83
136 61.77
138 61.72
140 61.65
143 61.56
145 61.50
147.5 61.43
150 61.35
152.5 61.28
155 61.21
157.5 61.14
160 61.06
162.5 60.98
165 60.90
167.5 60.83
170 60.75
172.5 60.69
175 60.62
177.5 60.55
180 60.48
182.5 60.41
185 60.33
187.5 60.26
190 60.18
192.5 60.10
195 60.03
197.5 59.95
200 59.88
203 59.80
206 59.73
209 59.65
212 59.58
214 59.52
218 59.39
220 59.33
224 59.19
227 59.10
230 59.01
233 58.92
236 58.83
240 58.70
243 58.61
247 58.49
250 58.43
254 58.39
258 58.41
262 58.44
265 58.45
269 58.43
272 58.40
276 58.35
280 58.28
285 58.20
290 58.13
295 58.06
300 57.98
304 57.91
307 57.86
311 57.78
315 57.69
320 57.59
325 57.48
330 57.38
335 57.27
340 57.17
345 57.07
350 56.97
355 56.88
360 56.79
365 56.69
370 56.59
375 56.50
382 56.38
387 56.30
395 56.17
400 56.08
406 56.00
412 55.89
418 55.81
425 55.70
431 55.62
437 55.53
444 55.43
450 55.34
455 55.27
462 55.17
468 55.09
475 55.00
482 54.92
487 54.85
494 54.76
500 54.69
508 54.60
515 54.52
522 54.44
530 54.35
538 54.25
545 54.18
552 54.10
560 54.02
570 53.91
580 53.82
590 53.73
600 53.62
608 53.56
615 53.49
622 53.44
630 53.37
640 53.28
650 53.20
660 53.12
670 53.05
680 52.98
690 52.90
700 52.83
710 52.77
720 52.71
730 52.67
740 52.61
750 52.58
762 52.56
775 52.52
788 52.46
800 52.43
812 52.38
825 52.32
838 52.25
850 52.17
862 52.17
875 52.40
885 52.61
900 52.63
912 52.62
925 52.58
938 52.51
950 52.45
962 52.39
975 52.40
988 52.43
1000 52.48
1015 52.57
1030 52.65
1044 52.73
1060 52.81
1075 52.88
1090 52.94
1106 52.99
1120 53.03
1138 53.10
1150 53.15
1172 53.21
1180 53.25
1206 53.33
1220 53.40
1241 53.56
1250 53.62
1265 53.73
1280 53.82
1315 54.04
1320 54.08
1340 54.21
1360 54.37
1380 54.51
1400 54.64
1430 54.83
1450 54.95
1475 55.11
1500 55.28
1525 55.43
1550 55.54
1575 55.66
1600 55.78
1625 55.89
1650 56.01
1675 56.14
1700 56.27
1725 56.40
1750 56.52
1775 56.64
1800 56.79
1825 56.92
1850 57.06
1875 57.20
1900 57.35
1925 57.51
1950 57.66
1975 57.82
2000 57.98
2030 58.18
2060 58.38
2090 58.59
2120 58.80
2140 58.95
2180 59.23
2200 59.39
2240 59.68
2270 59.90
2300 60.14
2330 60.36
2360 60.57
2400 60.89
2430 61.12
2470 61.41
2500 61.64
2540 61.92
2580 62.19
2620 62.44
2650 62.62
2690 62.85
2720 63.01
2760 63.20
2800 63.37
2850 63.54
2900 63.68
2950 63.80
3000 63.87
3040 63.92
3070 63.94
3110 63.96
3150 63.98
3200 63.98
3250 63.98
3300 63.97
3350 63.97
3400 63.97
3450 63.96
3500 63.98
3550 64.01
3600 64.05
3650 64.11
3700 64.18
3750 64.27
3820 64.42
3870 64.55
3950 64.80
4000 64.96
4060 65.16
4120 65.36
4180 65.53
4250 65.69
4310 65.75
4370 65.73
4440 65.58
4500 65.33
4550 65.03
4620 64.49
4680 63.94
4750 63.23
4820 62.47
4870 61.90
4940 61.10
5000 60.42
5080 59.53
5150 58.80
5220 58.08
5300 57.30
5380 56.57
5450 55.97
5520 55.41
5600 54.78
5700 54.04
5800 53.41
5900 52.82
6000 52.28
6080 51.88
6150 51.50
6220 51.20
6300 50.92
6400 50.54
6500 50.24
6600 50.06
6700 49.84
6800 49.67
6900 49.59
7000 49.49
7100 49.51
7200 49.53
7300 49.69
7400 49.82
7500 50.12
7620 50.47
7750 50.98
7880 51.68
8000 52.50
8120 53.51
8250 54.97
8380 56.72
8500 58.74
8620 60.69
8750 61.16
8850 59.73
9000 56.56
9120 54.19
9250 51.99
9380 50.17
9500 48.72
9620 47.49
9750 46.32
9880 45.35
10000 44.56
10150 43.70
10300 42.94
10440 42.39
10600 41.83
10750 41.52
10900 41.33
11060 41.15
11200 41.15
11380 41.28
11500 41.47
11720 42.15
11800 42.46
12060 44.07
12200 45.08
12410 46.73
12500 47.05
12650 46.83
12800 45.69
13150 41.15
13200 40.46
13400 38.15
13600 35.84
13800 34.25
14000 32.90
14300 30.54
14500 29.38
14750 28.47
15000 26.45
15250 25.81
15500 24.62
15750 25.56
16000 24.62
16250 27.25
16500 29.95
16750 33.51
17000 37.20
17250 39.17
17500 38.28
17750 36.61
18000 35.58
18250 34.99
18500 34.96
18750 35.28
19000 35.21
19250 34.25
19500 33.25
19750 31.31
